=~=~=~=~=~=~=~=~=~=~=~= PuTTY log 2023.06.21 19:42:21 =~=~=~=~=~=~=~=~=~=~=~=
Connected: F1:2C:71:91:F4:9D (random)
[SUBSCRIBED]
311252977 296774 264718 
311252977 296581 264357 
311252977 297094 264941 
311252977 296974 264689 
311252977 296788 264524 
311252977 296614 264382 
311252977 296629 264340 
311252977 296557 264247 
311252977 296587 264314 
311252977 296485 264160 
311252977 296405 264121 
311252977 296444 264150 
311252977 296513 264129 
311252977 296498 264272 
311252977 296396 264155 
311252977 296400 264109 
311252977 296400 264106 
311252977 296415 264227 
311252977 296394 264162 
311252977 296417 264144 
311252977 296307 264024 
311252977 296245 264000 
311252977 296235 264045 
311252977 296266 263969 
311252977 296329 264118 
311252977 296191 264028 
311252977 296209 263985 
311252977 296171 263915 
311252977 296129 263875 
311252977 296100 263842 
311252977 296015 263750 
311252977 296130 263822 
311252977 296008 263830 
311252977 296044 263849 
311252977 296187 263846 
311252977 296083 263873 
311252977 296053 263771 
311252977 296124 263836 
311252977 296044 263755 
311252977 295987 263709 
311252977 296000 263736 
311252977 296027 263715 
311252977 295985 263676 
311252977 295974 263739 
311252977 295931 263677 
311252977 295909 263637 
311252977 295794 263546 
311252977 295793 263479 
311252977 295878 263559 
311252977 295765 263396 
311252977 295764 263418 
311252977 295788 263376 
311252977 295720 263419 
311252977 295762 263410 
311252977 295704 263396 
311252977 295715 263354 
311252977 295687 263332 
311252977 295648 263343 
311252977 295703 263353 
311252977 295666 263275 
311252977 295678 263287 
311252977 295627 263282 
311252977 295574 263299 
311252977 295638 263257 
311252977 295592 263331 
311252977 295632 263317 
311252977 295624 263300 
311252977 295570 263279 
311252977 295582 263341 
311252977 295448 263125 
311252977 295546 263301 
311252977 295517 263320 
311252977 295467 263236 
311252977 295494 263280 
311252977 295544 263392 
311252977 295591 263440 
311252977 295577 263419 
311252977 295519 263375 
311252977 295399 263322 
311252977 295407 263354 
311252977 295471 263321 
311252977 295372 263295 
311252977 295729 263741 
311252977 295779 263867 
311252977 295775 263856 
311252977 295513 263597 
311252977 295224 263348 
311252977 295191 263304 
311252977 295225 263232 
311252977 295103 263095 
311252977 295091 263078 
311252977 295074 263101 
311252977 295023 263015 
311252977 294985 262958 
311252977 294993 263027 
311252977 294987 263022 
311252977 294998 263004 
311252977 294978 262999 
311252977 295000 263067 
311252977 294994 263066 
311252977 295085 263205 
311252977 295029 263127 
311252977 295225 263448 
311252977 295144 263294 
311252977 295110 263213 
311252977 295096 263200 
311252977 295080 263131 
311252977 295091 263099 
311252977 295024 263014 
311252977 294985 262961 
311252977 294941 262899 
311252977 294910 262901 
311252977 294911 262863 
311252977 294869 262864 
311252977 294834 262793 
311252977 294830 262810 
311252977 294798 262780 
311252977 294797 262806 
311252977 294796 262788 
311252977 294816 262733 
311252977 294854 262764 
311252977 294780 262848 
311252977 294832 262780 
311252977 294809 262702 
311252977 294833 262694 
311252977 294733 262650 
311252977 294749 262621 
311252977 294709 262572 
311252977 294679 262553 
311252977 294707 262563 
311252977 294614 262436 
311252977 294757 262511 
311252977 294641 262456 
311252977 294631 262405 
311252977 294579 262356 
311252977 294585 262348 
311252977 294639 262390 
311252977 294631 262328 
311252977 294649 262346 
311252977 294681 262285 
311252977 294663 262310 
311252977 294588 262242 
311252977 294615 262218 
311252977 294671 262269 
311252977 294652 262293 
311252977 294687 262321 
311252977 294643 262211 
311252977 294670 262207 
311252977 294699 262223 
311252977 294767 262249 
311252977 294696 262237 
311252977 294695 262190 
311252977 294653 262215 
311252977 294654 262211 
311252977 294775 262832 
311252977 294711 262790 
311252977 294709 262734 
311252977 294793 262763 
311252977 294796 262784 
311252977 294735 262721 
311252977 294717 262685 
311252977 294767 262756 
311252977 294801 262733 
311252977 294763 262688 
311252977 294750 262701 
311252977 294751 262670 
311252977 294760 262696 
311252977 294744 262632 
311252977 294692 262565 
311252977 294707 262579 
311252977 294673 262552 
311252977 294635 262527 
311252977 294695 262479 
311252977 294698 262544 
311252977 294749 262629 
311252977 294785 262578 
311252977 294867 262588 
311252977 294794 262581 
311252977 294766 262529 
311252977 294836 262620 
311252977 294775 262521 
311252977 294891 262601 
311252977 294803 262538 
311252977 294821 262460 
311252977 294855 262518 
311252977 294749 262458 
311252977 294820 262542 
311252977 294815 262464 
311252977 294864 262472 
311252977 294842 262516 
311252977 294808 262501 
311252977 294881 262495 
311252977 294868 262482 
311252977 294853 262498 
311252977 294865 262468 
311252977 294827 262465 
311252977 294880 262462 
311252977 294877 262449 
311252977 294837 262484 
311252977 294872 262420 
311252977 294848 262435 
311252977 294915 262463 
311252977 294931 262475 
311252977 294934 262474 
311252977 294883 262417 
311252977 294890 262421 
311252977 294868 262456 
311252977 294906 262441 
311252977 294951 262444 
311252977 294882 262396 
311252977 294932 262437 
311252977 294919 262393 
311252977 294926 262349 
311252977 294908 262341 
311252977 294971 262443 
311252977 295011 262449 
311252977 294945 262367 
311252977 294979 262388 
311252977 294987 262391 
311252977 294997 262358 
311252977 294988 262365 
311252977 294919 262333 
311252977 294936 262298 
311252977 294930 262362 
311252977 294976 262341 
311252977 294963 262340 
311252977 294940 262311 
311252977 294967 262331 
311252977 294895 262328 
311252977 294913 262269 
311252977 295008 262272 
311252977 294908 262271 
311252977 294950 262287 
311252977 294965 262295 
311252977 294967 262295 
311252977 295030 262292 
311252977 294976 262250 
311252977 294994 262241 
311252977 294978 262233 
311252977 294981 262206 
311252977 295049 262304 
311252977 294991 262234 
311252977 295076 262266 
311252977 295030 262223 
311252977 294990 262229 
311252977 294960 262230 
311252977 295010 262178 
311252977 295017 262186 
311252977 295064 262265 
311252977 295049 262303 
311252977 295046 262290 
311252977 295041 262243 
311252977 294988 262205 
311252977 294991 262208 
311252977 295043 262234 
311252977 295024 262164 
311252977 294980 262203 
311252977 295070 262198 
311252977 295049 262122 
311252977 294982 262118 
311252977 294996 262108 
311252977 294959 262133 
311252977 294982 262114 
311252977 294965 262085 
311252977 294965 262075 
311252977 294964 262089 
311252977 295030 262144 
311252977 295073 262141 
311252977 294997 262054 
311252977 295014 262089 
311252977 295034 262106 
311252977 295020 262089 
311252977 295004 262088 
311252977 295064 262048 
311252977 295030 262040 
311252977 294998 262091 
311252977 295009 262056 
311252977 294976 262025 
311252977 294958 262041 
311252977 294942 261951 
311252977 294935 261908 
311252977 294918 261924 
311252977 294910 261921 
311252977 294981 261964 
311252977 294915 261937 
311252977 294976 261915 
311252977 294926 261891 
311252977 294909 261881 
311252977 294912 261829 
311252977 294833 261793 
311252977 294935 261824 
311252977 294888 261850 
311252977 294943 261901 
311252977 294928 261911 
311252977 294932 261854 
311252977 294882 261857 
311252977 294902 261847 
311252977 294878 261835 
311252977 294875 261766 
311252977 294890 261852 
311252977 294933 261890 
311252977 294921 261885 
311252977 294952 261883 
311252977 294907 261844 
311252977 294866 261856 
311252977 294951 261849 
311252977 294920 261809 
311252977 294929 261806 
311252977 294930 261891 
311252977 294968 261949 
311252977 294907 261885 
311252977 294928 261822 
311252977 294963 261874 
311252977 294900 261835 
311252977 294887 261847 
311252977 294908 261803 
311252977 294851 261826 
311252977 295012 261923 
311252977 294924 261838 
311252977 294891 261866 
311252977 294884 261783 
311252977 294833 261826 
311252977 294953 261725 
311252977 294866 261731 
311252977 294875 261749 
311252977 294869 261756 
311252977 294896 261812 
311252977 294857 261761 
311252977 294808 261720 
311252977 294834 261745 
311252977 294783 261702 
311252977 294844 261718 
311252977 294740 261634 
311252977 294757 261675 
311252977 294873 261767 
311252977 294864 261760 
311252977 294813 261701 
311252977 294773 261715 
311252977 294800 261751 
311252977 294829 261686 
311252977 294779 261593 
311252977 294829 261694 
311252977 294891 261773 
311252977 294869 261811 
311252977 294830 261691 
311252977 294766 261667 
311252977 294757 261584 
311252977 294749 261612 
311252977 294827 261669 
311252977 294816 261669 
311252977 294782 261609 
311252977 294776 261735 
311252977 294787 261656 
311252977 294840 261597 
311252977 294754 261612 
311252977 294805 261659 
311252977 294804 261651 
311252977 294828 261635 
311252977 294814 261629 
311252977 294786 261615 
311252977 294813 261663 
311252977 294789 261591 
311252977 294670 261561 
311252977 294738 261488 
311252977 294730 261484 
311252977 294683 261458 
311252977 294663 261369 
311252977 294670 261429 
311252977 294809 261575 
311252977 294758 261520 
311252977 294730 261487 
311252977 294725 261437 
311252977 294713 261494 
311252977 294728 261455 
311252977 294677 261389 
311252977 294652 261346 
311252977 294701 261416 
311252977 294726 261445 
311252977 294733 261458 
311252977 294718 261468 
311252977 294718 261432 
311252977 294697 261409 
311252977 294671 261308 
311252977 294716 261346 
311252977 294693 261341 
311252977 294657 261351 
311252977 294779 261424 
311252977 294762 261364 
311252977 294673 261298 
311252977 294669 261342 
311252977 294723 261315 
311252977 294746 261329 
311252977 294714 261277 
311252977 294643 261260 
311252977 294687 261343 
311252977 294665 261233 
311252977 294732 261338 
311252977 294681 261259 
311252977 294686 261265 
311252977 294696 261289 
311252977 294720 261230 
311252977 294681 261210 
311252977 294695 261234 
311252977 294720 261197 
311252977 294746 261309 
311252977 294633 261208 
311252977 294709 261193 
311252977 294654 261214 
311252977 294600 261032 
311252977 294598 261050 
311252977 294647 261050 
311252977 294607 261068 
311252977 294710 261203 
311252977 294658 261137 
311252977 294665 261125 
311252977 294644 261079 
311252977 294654 261030 
311252977 294622 261031 
311252977 294719 261066 
311252977 294666 261093 
311252977 294718 261121 
311252977 294693 261154 
311252977 294677 261125 
311252977 294690 261079 
311252977 294712 261122 
311252977 294693 261099 
311252977 294716 261094 
311252977 294642 261021 
311252977 294705 261103 
311252977 294727 261140 
311252977 294781 261142 
311252977 294698 261080 
311252977 294725 261029 
311252977 294655 261024 
311252977 294697 261053 
311252977 294646 261003 
311252977 294680 261048 
311252977 294658 261024 
311252977 294676 261047 
311252977 294662 261012 
311252977 294673 261035 
311252977 294719 260996 
311252977 294695 261042 
311252977 294637 261012 
311252977 294620 260951 
311252977 294645 261003 
311252977 294632 261000 
311252977 294714 261056 
311252977 294680 261014 
311252977 294682 260993 
311252977 294650 260962 
311252977 294678 260969 
311252977 294579 260921 
311252977 294623 260928 
311252977 294607 261007 
311252977 294696 260988 
311252977 294685 260988 
311252977 294659 261005 
311252977 294700 261007 
311252977 294696 260953 
311252977 294632 260932 
311252977 294650 260928 
311252977 294704 260926 
311252977 294710 260983 
311252977 294654 260996 
311252977 294663 260992 
311252977 294677 261001 
311252977 294689 260999 
311252977 294699 260965 
311252977 294672 260910 
311252977 294632 260981 
311252977 294665 260982 
311252977 294631 260981 
311252977 294672 261017 
311252977 294653 260944 
311252977 294612 260918 
311252977 294632 260893 
311252977 294620 260873 
311252977 294583 260832 
311252977 294547 260787 
311252977 294562 260830 
311252977 294530 260855 
311252977 294509 260768 
311252977 294437 260663 
311252977 294467 260687 
311252977 294475 260664 
311252977 294453 260681 
311252977 294493 260669 
311252977 294453 260618 
311252977 294511 260725 
311252977 294574 260704 
311252977 294526 260697 
311252977 294447 260682 
311252977 294512 260730 
311252977 294477 260758 
311252977 294501 260630 
311252977 294437 260582 
311252977 294375 260631 
311252977 294580 260722 
311252977 294427 260655 
311252977 294468 260663 
311252977 294518 260643 
311252977 294453 260640 
311252977 294514 260584 
311252977 294459 260627 
311252977 294482 260614 
311252977 294429 260604 
311252977 294541 260706 
311252977 294577 260689 
311252977 294516 260676 
311252977 294579 260684 
311252977 294581 260722 
311252977 294556 260673 
311252977 294533 260620 
311252977 294508 260607 
311252977 294513 260690 
311252977 294548 260723 
311252977 294570 260668 
311252977 294558 260733 
311252977 294541 260702 
311252977 294518 260682 
311252977 294584 260659 
311252977 294533 260662 
311252977 294547 260627 
311252977 294537 260658 
311252977 294611 260741 
311252977 294568 260733 
311252977 294575 260661 
311252977 294585 260668 
311252977 294555 260656 
311252977 294523 260602 
311252977 294518 260635 
311252977 294548 260624 
311252977 294556 260672 
311252977 294585 260750 
311252977 294588 260680 
311252977 294591 260642 
311252977 294585 260684 
311252977 294548 260663 
311252977 294534 260629 
311252977 294534 260577 
311252977 294536 260628 
311252977 294586 260724 
311252977 294630 260690 
311252977 294574 260638 
311252977 294654 260612 
311252977 294525 260579 
311252977 294527 260582 
311252977 294468 260485 
311252977 294488 260464 
311252977 294518 260525 
311252977 294541 260584 
311252977 294568 260514 
311252977 294461 260468 
311252977 294457 260511 
311252977 294481 260523 
311252977 294526 260450 
311252977 294454 260434 
311252977 294478 260437 
311252977 294506 260511 
311252977 294508 260492 
311252977 294501 260403 
311252977 294506 260423 
311252977 294492 260444 
311252977 294517 260439 
311252977 294448 260437 
311252977 294439 260399 
311252977 294465 260385 
311252977 294471 260477 
311252977 294452 260424 
311252977 294452 260425 
311252977 294418 260389 
311252977 294429 260378 
311252977 294380 260321 
311252977 294390 260299 
311252977 294407 260290 
311252977 294318 260264 
311252977 294423 260287 
311252977 294395 260288 
311252977 294340 260290 
311252977 294318 260272 
311252977 294372 260232 
311252977 294317 260215 
311252977 294275 260177 
311252977 294360 260270 
311252977 294373 260268 
311252977 294352 260263 
311252977 294332 260278 
311252977 294368 260172 
311252977 294357 260203 
311252977 294277 260137 
311252977 294306 260262 
311252977 294316 260210 
311252977 294334 260208 
311252977 294375 260221 
311252977 294358 260235 
311252977 294359 260231 
311252977 294335 260163 
311252977 294343 260182 
311252977 294370 260206 
311252977 294372 260218 
311252977 294349 260100 
311252977 294358 260125 
311252977 294371 260223 
311252977 294401 260214 
311252977 294399 260203 
311252977 294333 260201 
311252977 294373 260191 
311252977 294409 260256 
311252977 294417 260186 
311252977 294389 260169 
311252977 294344 260203 
311252977 294424 260314 
311252977 294400 260284 
311252977 294388 260235 
311252977 294371 260175 
311252977 294365 260154 
311252977 294352 260147 
311252977 294350 260128 
311252977 294320 260107 
311252977 294322 260098 
311252977 294338 260225 
311252977 294387 260170 
311252977 294320 260182 
311252977 294322 260156 
311252977 294366 260118 
311252977 294295 260107 
311252977 294280 260092 
311252977 294226 260069 
311252977 294319 260128 
311252977 294382 260130 
311252977 294346 260137 
311252977 294326 260108 
311252977 294361 260136 
311252977 294322 260068 
311252977 294320 260051 
311252977 294308 260050 
311252977 294298 260118 
311252977 294344 260098 
311252977 294402 260199 
311252977 294366 260154 
311252977 294361 260152 
311252977 294381 260176 
311252977 294429 260165 
311252977 294415 260163 
311252977 294333 260160 
311252977 294417 260161 
311252977 294399 260234 
311252977 294424 260240 
311252977 294425 260258 
311252977 294436 260265 
311252977 294438 260280 
311252977 294455 260245 
311252977 294409 260241 
311252977 294430 260221 
311252977 294363 260173 
311252977 294410 260314 
311252977 294455 260302 
311252977 294461 260273 
311252977 294393 260204 
311252977 294396 260203 
311252977 294353 260172 
311252977 294370 260121 
311252977 294311 260083 
311252977 294353 260153 
311252977 294411 260260 
311252977 294401 260175 
311252977 294353 260100 
311252977 294279 260079 
311252977 294222 260039 
311252977 294284 260061 
311252977 294251 259996 
311252977 294289 260035 
311252977 294318 260116 
311252977 294330 260112 
311252977 294280 260097 
311252977 294278 260053 
311252977 294331 260101 
311252977 294283 260059 
311252977 294242 259984 
311252977 294167 259956 
311252977 294244 260032 
311252977 294353 260126 
311252977 294221 260061 
311252977 294294 260006 
311252977 294227 260022 
311252977 294228 260054 
311252977 294271 260053 
311252977 294285 260050 
311252977 294197 259996 
311252977 294226 260041 
311252977 294270 260115 
311252977 294262 260031 
311252977 294203 260020 
311252977 294216 259959 
311252977 294138 259961 
311252977 294165 259933 
311252977 294134 259883 
311252977 294134 259873 
311252977 294144 259949 
311252977 294171 259944 
311252977 294125 259926 
311252977 294150 259855 
311252977 294122 259865 
311252977 294057 259835 
311252977 294066 259790 
311252977 294045 259807 
311252977 294095 259839 
311252977 294150 259951 
311252977 294118 259924 
311252977 294059 259836 
311252977 294055 259847 
311252977 294100 259833 
311252977 294100 259778 
311252977 294036 259809 
311252977 294007 259718 
311252977 294028 259785 
311252977 294067 259853 
311252977 294096 259831 
311252977 294043 259781 
311252977 294000 259758 
311252977 294057 259705 
311252977 293985 259725 
311252977 293932 259695 
311252977 293995 259733 
311252977 294010 259785 
311252977 294028 259796 
311252977 294005 259736 
311252977 294014 259726 
311252977 294002 259737 
311252977 293949 259739 
311252977 293947 259682 
311252977 293940 259620 
311252977 293923 259665 
311252977 294000 259773 
311252977 294009 259763 
311252977 294043 259724 
311252977 294002 259663 
311252977 293924 259689 
311252977 293984 259680 
311252977 293951 259642 
311252977 293966 259656 
311252977 293978 259689 
311252977 294060 259817 
311252977 294034 259750 
311252977 294011 259775 
311252977 294021 259741 
311252977 293970 259675 
311252977 293985 259607 
311252977 293891 259517 
311252977 293879 259591 
311252977 293900 259677 
311252977 293951 259654 
311252977 293953 259612 
311252977 293908 259583 
311252977 293883 259596 
311252977 293896 259540 
311252977 293844 259504 
311252977 293786 259465 
311252977 293799 259515 
311252977 293920 259631 
311252977 293872 259562 
311252977 293847 259527 
311252977 293858 259570 
311252977 293879 259583 
311252977 293805 259507 
311252977 293748 259404 
311252977 293666 259399 
311252977 293744 259416 
311252977 293797 259482 
311252977 293783 259459 
311252977 293747 259435 
311252977 293699 259431 
311252977 293778 259399 
311252977 293740 259339 
311252977 293715 259388 
311252977 293677 259306 
311252977 293706 259361 
311252977 293758 259390 
311252977 293762 259379 
311252977 293717 259310 
311252977 293679 259320 
311252977 293694 259335 
311252977 293631 259255 
311252977 293626 259191 
311252977 293641 259256 
311252977 293741 259414 
311252977 293711 259335 
311252977 293648 259313 
311252977 293699 259291 
311252977 293664 259223 
311252977 293639 259266 
311252977 293626 259140 
311252977 293598 259217 
311252977 293731 259321 
311252977 293718 259341 
311252977 293686 259264 
311252977 293663 259216 
311252977 293613 259230 
311252977 293597 259221 
311252977 293584 259193 
311252977 293682 259218 
311252977 293678 259299 
311252977 293685 259331 
311252977 293608 259318 
311252977 293636 259173 
311252977 293621 259256 
311252977 293595 259226 
311252977 293599 259218 
311252977 293518 259090 
311252977 293629 259262 
311252977 293678 259351 
311252977 293641 259275 
311252977 293595 259198 
311252977 293600 259206 
311252977 293570 259223 
311252977 293551 259168 
311252977 293600 259213 
311252977 293679 259218 
311252977 293704 259325 
311252977 293675 259379 
311252977 293719 259365 
311252977 293646 259314 
311252977 293652 259307 
311252977 293650 259286 
311252977 293607 259256 
311252977 293634 259279 
311252977 293658 259397 
311252977 293713 259394 
311252977 293733 259350 
311252977 293708 259325 
311252977 293648 259339 
311252977 293635 259294 
311252977 293665 259306 
311252977 293624 259237 
311252977 293620 259298 
311252977 293748 259438 
311252977 293690 259372 
311252977 293691 259333 
311252977 293693 259323 
311252977 293675 259313 
311252977 293674 259386 
311252977 293655 259341 
311252977 293689 259296 
311252977 293643 259351 
311252977 293805 259425 
311252977 293760 259404 
311252977 293670 259438 
311252977 293710 259370 
311252977 293688 259336 
311252977 293655 259332 
311252977 293671 259324 
311252977 293678 259255 
311252977 293702 259353 
311252977 293701 259401 
311252977 293688 259345 
311252977 293627 259297 
311252977 293631 259324 
311252977 293661 259272 
311252977 293623 259211 
311252977 293583 259204 
311252977 293633 259229 
311252977 293729 259410 
311252977 293696 259327 
311252977 293660 259315 
311252977 293612 259355 
311252977 293652 259299 
311252977 293650 259277 
311252977 293601 259156 
311252977 293629 259268 
311252977 293769 259425 
311252977 293642 259314 
311252977 293703 259296 
311252977 293680 259368 
311252977 293659 259304 
311252977 293672 259308 
311252977 293596 259245 
311252977 293611 259214 
311252977 293651 259295 
311252977 293772 259419 
311252977 293693 259343 
311252977 293616 259331 
311252977 293697 259272 
311252977 293642 259321 
311252977 293656 259317 
311252977 293626 259236 
311252977 293611 259213 
311252977 293645 259274 
311252977 293682 259326 
311252977 293681 259294 
311252977 293628 259251 
311252977 293647 259307 
311252977 293644 259234 
311252977 293586 259223 
311252977 293601 259215 
311252977 293583 259191 
311252977 293686 259254 
311252977 293650 259313 
311252977 293646 259255 
311252977 293577 259183 
311252977 293526 259181 
311252977 293544 259165 
311252977 293521 259109 
311252977 293491 259126 
311252977 293630 259319 
311252977 293576 259294 
311252977 293587 259192 
311252977 293498 259194 
311252977 293502 259165 
311252977 293502 259068 
311252977 293522 259145 
311252977 293572 259265 
311252977 293642 259394 
311252977 293600 259398 
311252977 293539 259296 
311252977 293560 259285 
311252977 293531 259266 
311252977 293495 259240 
311252977 293468 259289 
311252977 293577 259369 
311252977 293563 259383 
311252977 293544 259397 
311252977 293509 259375 
311252977 293584 259365 
311252977 293580 259351 
311252977 293493 259324 
311252977 293586 259460 
311252977 293582 259480 
311252977 293465 259275 
311252977 293425 259284 
311252977 293324 259187 
311252977 293306 259138 
311252977 293396 259232 
311252977 293412 259276 
311252977 293533 259465 
311252977 293612 259478 
311252977 293477 259465 
311252977 293487 259428 
311252977 293442 259382 
311252977 293362 259338 
311252977 293313 259228 
311252977 293236 259170 
311252977 293267 259243 
311252977 293272 259201 
311252977 293202 259119 
311252977 293163 259038 
311252977 293269 259212 
311252977 293185 259136 
311252977 293202 259105 
311252977 293235 259150 
311252977 293390 259401 
311252977 293446 259410 
311252977 293301 259374 
311252977 293207 259236 
311252977 293242 259261 
311252977 293308 259296 
311252977 293206 259189 
311252977 293239 259320 
311252977 293279 259327 
311252977 293294 259331 
311252977 293238 259296 
311252977 293206 259324 
311252977 293226 259335 
311252977 293190 259248 
311252977 293192 259215 
311252977 293211 259286 
311252977 293124 259224 
311252977 293070 259123 
311252977 293079 259114 
311252977 293148 259220 
311252977 293199 259216 
311252977 293207 259203 
311252977 293194 259177 
311252977 293035 259094 
311252977 292995 259050 
311252977 293008 259080 
311252977 293170 259242 
311252977 293071 259046 
311252977 293185 259207 
311252977 293074 259105 
311252977 293142 259165 
311252977 293210 259245 
311252977 293451 259585 
311252977 293305 259416 
311252977 293500 259613 
311252977 293560 259766 
311252977 293708 259887 
311252977 293644 259855 
311252977 293448 259581 
311252977 293365 259498 
311252977 293184 259292 
311252977 293306 259382 
311252977 293071 259124 
311252977 292964 258997 
311252977 292888 258904 
311252977 292823 258872 
311252977 292817 258817 
311252977 292811 258821 
311252977 292781 258721 
311252977 291791 257484 
311252977 285784 250223 
311252977 288002 252811 
311252977 283005 246968 
311252977 280237 244083 
311252977 278669 242393 
311252977 273739 236256 
311252977 270796 233085 
311252977 268912 231044 
311252977 266942 229341 
311252977 264880 227110 
311252977 263325 225447 
311252977 262869 224908 
311252977 262606 224639 
311252977 262740 224220 
311252977 261344 222723 
311252977 260750 222056 
[UNSUBSCRIBED]
Disconnected: F1:2C:71:91:F4:9D (random) (reason 0x08)
Scanning successfully started
